bin_left	frequency
0	0.595599
1	0.334269
2	0.065279
3	0.004698
4	0.000140
5	0.000000
6	0.000004
7	0.000004
8	0.000000
9	0.000008
10	0.000000
11	0.000000
12	0.000000
13	0.000000
14	0.000000
15	0.000000
16	0.000000
17	0.000000
18	0.000000
19	0.000000
20	0.000000
