bin_left	frequency
0	0.612796
1	0.323736
2	0.059491
3	0.003880
4	0.000078
5	0.000000
6	0.000000
7	0.000000
8	0.000020
9	0.000000
10	0.000000
11	0.000000
12	0.000000
13	0.000000
14	0.000000
15	0.000000
16	0.000000
17	0.000000
18	0.000000
19	0.000000
20	0.000000
