bin_left	frequency
0	0.411093
1	0.311582
2	0.176183
3	0.072866
4	0.021751
5	0.005982
6	0.000544
7	0.000000
8	0.000000
9	0.000000
10	0.000000
11	0.000000
12	0.000000
13	0.000000
14	0.000000
15	0.000000
16	0.000000
17	0.000000
18	0.000000
19	0.000000
20	0.000000
