bin_left	frequency
0	0.589429
1	0.337131
2	0.068134
3	0.005164
4	0.000112
5	0.000000
6	0.000004
7	0.000004
8	0.000015
9	0.000008
10	0.000000
11	0.000000
12	0.000000
13	0.000000
14	0.000000
15	0.000000
16	0.000000
17	0.000000
18	0.000000
19	0.000000
20	0.000000
