bin_left	frequency
0	0.599370
1	0.329162
2	0.066300
3	0.004984
4	0.000137
5	0.000009
6	0.000004
7	0.000009
8	0.000026
9	0.000000
10	0.000000
11	0.000000
12	0.000000
13	0.000000
14	0.000000
15	0.000000
16	0.000000
17	0.000000
18	0.000000
19	0.000000
20	0.000000
