bin_left	frequency
0	0.578763
1	0.307913
2	0.090348
3	0.019525
4	0.003008
5	0.000420
6	0.000011
7	0.000011
8	0.000000
9	0.000000
10	0.000000
11	0.000000
12	0.000000
13	0.000000
14	0.000000
15	0.000000
16	0.000000
17	0.000000
18	0.000000
19	0.000000
20	0.000000
