bin_left	frequency
0	0.423240
1	0.317131
2	0.169339
3	0.065004
4	0.019794
5	0.004361
6	0.001026
7	0.000086
8	0.000000
9	0.000000
10	0.000000
11	0.000021
12	0.000000
13	0.000000
14	0.000000
15	0.000000
16	0.000000
17	0.000000
18	0.000000
19	0.000000
20	0.000000
